0, id 09-Temps-mort;
1, 0.000000 0.441499 -0.769414;
2, 0.000073 0.422863 -0.892786;
3, 0.000145 0.576986 -0.801794;
4, 0.000218 0.440601 -0.871560;
5, 0.000291 0.411979 -0.818139;
6, 0.000364 0.461571 -0.835237;
7, 0.000436 0.417784 -0.917754;
8, 0.000509 0.430354 -0.775629;
9, 0.000582 0.517458 -0.880870;
10, 0.000654 0.482153 -0.899283;
11, 0.000727 0.405351 -0.853454;
12, 0.000800 0.431679 -0.889333;
13, 0.000873 0.525748 -0.824009;
14, 0.000945 0.479336 -0.963479;
15, 0.001018 0.486102 -0.871360;
16, 0.001091 0.383778 -0.854519;
17, 0.001164 0.487173 -0.848371;
18, 0.001236 0.500689 -0.789697;
19, 0.001309 0.445272 -0.842648;
20, 0.001382 0.420729 -0.843301;
21, 0.001454 0.451169 -0.918140;
22, 0.001527 0.477773 -0.834197;
23, 0.001600 0.476324 -0.753211;
24, 0.001673 0.415163 -0.811512;
25, 0.001745 0.484875 -0.749186;
26, 0.001818 0.463234 -0.912673;
27, 0.001891 0.405883 -0.841324;
28, 0.001963 0.486978 -0.792673;
29, 0.002036 0.426608 -0.875517;
30, 0.002109 0.469072 -0.836621;
31, 0.002182 0.505611 -0.740274;
32, 0.002254 0.507720 -0.759605;
33, 0.002327 0.464851 -0.915819;
34, 0.002400 0.469334 -0.763261;
35, 0.002473 0.525384 -0.704080;
36, 0.002545 0.432368 -0.781814;
37, 0.002618 0.480270 -0.873612;
38, 0.002691 0.401009 -0.767692;
39, 0.002763 0.410692 -0.921833;
40, 0.002836 0.528742 -0.838424;
41, 0.002909 0.494482 -0.843903;
42, 0.002982 0.460012 -1.001803;
43, 0.003054 0.439715 -0.885118;
44, 0.003127 0.430795 -0.799291;
45, 0.003200 0.533557 -0.757536;
46, 0.003272 0.480546 -0.873017;
47, 0.003345 0.518545 -0.883725;
48, 0.003418 0.469831 -0.919061;
49, 0.003491 0.447866 -0.742166;
50, 0.003563 0.435564 -0.959082;
51, 0.003636 0.437122 -0.849037;
52, 0.003709 0.461868 -0.728450;
53, 0.003782 0.486995 -0.771532;
54, 0.003854 0.504196 -0.908871;
55, 0.003927 0.459756 -0.787181;
56, 0.004000 0.507565 -0.701511;
57, 0.004072 0.463385 -0.859057;
58, 0.004145 0.397771 -0.751584;
59, 0.004218 0.453056 -0.824170;
60, 0.004291 0.400373 -0.936898;
61, 0.004363 0.473894 -0.726997;
62, 0.004436 0.424930 -0.741323;
63, 0.004509 0.475195 -0.859432;
64, 0.004581 0.483131 -0.853037;
65, 0.004654 0.419049 -0.854586;
66, 0.004727 0.443683 -0.809142;
67, 0.004800 0.462162 -1.027745;
68, 0.004872 0.493058 -0.866013;
69, 0.004945 0.439530 -0.873053;
70, 0.005018 0.461042 -0.760859;
71, 0.005091 0.420774 -0.852428;
72, 0.005163 0.469899 -0.732591;
73, 0.005236 0.526778 -0.901110;
74, 0.005309 0.441003 -0.886890;
75, 0.005381 0.476800 -0.855340;
76, 0.005454 0.394536 -0.789740;
77, 0.005527 0.446774 -1.063683;
78, 0.005600 0.438438 -0.943673;
79, 0.005672 0.435353 -0.788151;
80, 0.005745 0.470296 -0.896057;
81, 0.005818 0.452820 -0.802530;
82, 0.005890 0.518385 -0.874253;
83, 0.005963 0.398383 -0.914848;
84, 0.006036 0.402769 -0.788212;
85, 0.006109 0.445533 -0.842243;
86, 0.006181 0.487226 -0.886147;
87, 0.006254 0.508145 -0.892030;
88, 0.006327 0.389820 -0.946312;
89, 0.006400 0.543450 -0.844999;
90, 0.006472 0.535297 -0.743143;
91, 0.006545 0.441188 -0.807580;
92, 0.006618 0.410907 -0.842928;
93, 0.006690 0.466274 -0.860370;
94, 0.006763 0.454960 -0.760311;
95, 0.006836 0.432799 -0.836969;
96, 0.006909 0.435806 -0.891306;
97, 0.006981 0.415758 -0.945997;
98, 0.007054 0.506929 -0.711230;
99, 0.007127 0.488153 -0.858904;
100, 0.007199 0.450987 -0.813831;
101, 0.007272 0.412998 -0.710256;
102, 0.007345 0.376739 -0.711032;
103, 0.007418 0.559546 -0.743094;
104, 0.007490 0.443273 -0.821415;
105, 0.007563 0.446320 -0.792391;
106, 0.007636 0.387139 -0.769111;
107, 0.007709 0.400809 -0.803104;
108, 0.007781 0.487844 -0.642193;
109, 0.007854 0.393667 -0.900354;
110, 0.007927 0.497096 -0.706509;
111, 0.007999 0.409639 -0.758932;
112, 0.008072 0.502539 -0.763902;
113, 0.008145 0.485830 -0.838180;
114, 0.008218 0.507042 -0.846345;
115, 0.008290 0.455299 -0.748438;
116, 0.008363 0.478082 -0.965208;
117, 0.008436 0.444564 -0.902289;
118, 0.008508 0.448432 -0.889693;
119, 0.008581 0.420372 -0.943389;
120, 0.008654 0.418122 -0.795746;
121, 0.008727 0.444232 -0.842878;
122, 0.008799 0.430650 -0.893449;
123, 0.008872 0.430315 -0.775114;
124, 0.008945 0.494973 -0.822444;
125, 0.009018 0.430281 -0.923252;
126, 0.009090 0.575582 -0.755461;
127, 0.009163 0.476916 -0.812397;
128, 0.009236 0.526192 -0.756959;
129, 0.009308 0.484606 -0.809855;
130, 0.009381 0.494409 -0.790143;
131, 0.009454 0.518721 -0.844918;
132, 0.009527 0.472297 -0.929200;
133, 0.009599 0.460907 -0.889924;
134, 0.009672 0.485544 -1.021156;
135, 0.009745 0.461617 -0.938648;
136, 0.009817 0.456153 -0.829592;
137, 0.009890 0.488370 -0.875583;
138, 0.009963 0.494290 -0.813561;
139, 0.010036 0.482739 -0.852583;
140, 0.010108 0.502829 -0.902102;
141, 0.010181 0.573224 -0.902659;
142, 0.010254 0.466405 -0.852422;
143, 0.010327 0.454947 -0.845725;
144, 0.010399 0.441918 -0.798411;
145, 0.010472 0.483527 -0.820603;
146, 0.010545 0.556095 -0.833180;
147, 0.010617 0.493253 -0.890198;
148, 0.010690 0.493030 -0.839264;
149, 0.010763 0.386127 -0.780188;
150, 0.010836 0.513099 -0.884675;
151, 0.010908 0.489550 -0.834617;
152, 0.010981 0.442818 -0.828232;
153, 0.011054 0.459799 -0.852635;
154, 0.011126 0.410703 -0.936508;
155, 0.011199 0.455376 -0.828742;
156, 0.011272 0.452684 -0.876076;
157, 0.011345 0.452458 -0.818893;
158, 0.011417 0.469953 -0.855011;
159, 0.011490 0.375919 -0.763503;
160, 0.011563 0.439649 -0.931311;
161, 0.011636 0.508107 -0.691530;
162, 0.011708 0.537033 -0.938338;
163, 0.011781 0.490911 -0.736102;
164, 0.011854 0.453723 -0.793679;
165, 0.011926 0.428371 -0.977616;
166, 0.011999 0.436871 -0.769468;
167, 0.012072 0.416654 -0.850243;
168, 0.012145 0.492221 -0.804446;
169, 0.012217 0.465107 -0.805296;
170, 0.012290 0.506180 -0.739489;
171, 0.012363 0.424746 -0.861169;
172, 0.012435 0.465713 -0.814128;
173, 0.012508 0.518599 -0.837759;
174, 0.012581 0.412896 -0.711441;
175, 0.012654 0.476893 -0.913644;
176, 0.012726 0.458567 -0.816221;
177, 0.012799 0.529529 -0.827677;
178, 0.012872 0.491109 -0.892104;
179, 0.012945 0.433813 -0.864174;
180, 0.013017 0.380544 -0.783297;
181, 0.013090 0.470721 -0.713225;
182, 0.013163 0.461762 -0.959573;
183, 0.013235 0.469710 -0.959057;
184, 0.013308 0.472322 -0.872927;
185, 0.013381 0.470322 -0.867418;
186, 0.013454 0.466299 -0.653126;
187, 0.013526 0.491085 -0.757193;
188, 0.013599 0.467776 -0.919156;
189, 0.013672 0.438499 -0.872223;
190, 0.013744 0.469005 -0.863346;
191, 0.013817 0.478783 -0.825675;
192, 0.013890 0.472975 -0.731745;
193, 0.013963 0.479609 -0.904118;
194, 0.014035 0.507528 -0.755284;
195, 0.014108 0.444682 -0.771072;
196, 0.014181 0.442994 -1.051924;
197, 0.014254 0.415088 -0.687047;
198, 0.014326 0.530032 -0.975249;
199, 0.014399 0.462749 -0.880583;
200, 0.014472 0.467941 -0.726193;
201, 0.014544 0.476784 -0.841616;
202, 0.014617 0.421393 -0.900207;
203, 0.014690 0.492755 -0.779683;
204, 0.014763 0.486229 -0.805048;
205, 0.014835 0.429727 -0.802130;
206, 0.014908 0.457015 -0.935216;
207, 0.014981 0.502696 -0.827822;
208, 0.015053 0.474371 -0.756631;
209, 0.015126 0.467876 -0.803348;
210, 0.015199 0.490959 -0.644601;
211, 0.015272 0.455755 -0.811178;
212, 0.015344 0.538606 -0.802511;
213, 0.015417 0.404009 -0.734563;
214, 0.015490 0.476254 -0.880027;
215, 0.015563 0.474375 -0.893626;
216, 0.015635 0.555501 -0.691319;
217, 0.015708 0.514705 -0.745733;
218, 0.015781 0.435634 -0.863870;
219, 0.015853 0.546886 -0.803438;
220, 0.015926 0.547869 -0.763277;
221, 0.015999 0.384762 -0.788167;
222, 0.016072 0.416086 -0.890465;
223, 0.016144 0.505398 -0.861301;
224, 0.016217 0.462240 -0.752438;
225, 0.016290 0.453452 -0.921067;
226, 0.016362 0.498351 -0.779334;
227, 0.016435 0.461834 -0.841090;
228, 0.016508 0.486684 -0.955091;
229, 0.016581 0.493869 -0.891182;
230, 0.016653 0.474173 -0.794312;
231, 0.016726 0.447216 -0.853228;
232, 0.016799 0.458670 -0.905785;
233, 0.016872 0.516691 -0.888719;
234, 0.016944 0.504661 -0.971298;
235, 0.017017 0.523056 -0.809033;
236, 0.017090 0.547382 -0.901089;
237, 0.017162 0.508952 -0.839445;
238, 0.017235 0.555546 -0.815452;
239, 0.017308 0.477996 -0.848224;
240, 0.017381 0.517789 -0.771358;
241, 0.017453 0.544559 -0.824818;
242, 0.017526 0.522518 -0.896358;
243, 0.017599 0.437969 -0.880896;
244, 0.017671 0.483979 -0.882536;
245, 0.017744 0.449214 -0.936642;
246, 0.017817 0.423403 -0.696588;
247, 0.017890 0.414267 -0.796323;
248, 0.017962 0.514324 -0.925123;
249, 0.018035 0.456989 -0.922615;
250, 0.018108 0.426202 -0.800409;
251, 0.018180 0.427270 -0.899334;
252, 0.018253 0.421101 -0.975465;
253, 0.018326 0.498241 -0.831858;
254, 0.018399 0.508634 -0.829982;
255, 0.018471 0.530157 -0.902642;
256, 0.018544 0.537315 -0.745536;
257, 0.018617 0.484864 -1.037154;
258, 0.018690 0.434528 -0.833414;
259, 0.018762 0.427976 -0.945951;
260, 0.018835 0.385659 -0.743533;
261, 0.018908 0.471028 -0.827605;
262, 0.018980 0.388767 -0.967417;
263, 0.019053 0.472811 -0.891224;
264, 0.019126 0.457452 -0.905091;
265, 0.019199 0.517305 -0.757916;
266, 0.019271 0.440138 -0.826157;
267, 0.019344 0.582104 -0.899319;
268, 0.019417 0.508387 -0.916623;
269, 0.019489 0.455094 -0.934540;
270, 0.019562 0.500795 -0.785079;
271, 0.019635 0.455634 -0.732428;
272, 0.019708 0.442307 -0.739201;
273, 0.019780 0.548162 -0.748864;
274, 0.019853 0.447733 -0.848176;
275, 0.019926 0.462530 -0.876525;
276, 0.019999 0.398787 -0.813560;
277, 0.020071 0.457105 -0.829034;
278, 0.020144 0.381166 -0.885711;
279, 0.020217 0.479153 -0.665585;
280, 0.020289 0.580647 -0.856990;
281, 0.020362 0.437849 -0.826706;
282, 0.020435 0.390066 -0.852711;
283, 0.020508 0.583737 -1.038487;
284, 0.020580 0.490531 -0.798068;
285, 0.020653 0.567225 -0.769959;
286, 0.020726 0.433216 -0.774355;
287, 0.020798 0.443452 -0.902330;
288, 0.020871 0.501093 -0.814799;
289, 0.020944 0.431172 -0.832064;
290, 0.021017 0.384863 -0.872836;
291, 0.021089 0.459599 -0.842207;
292, 0.021162 0.455149 -0.863883;
293, 0.021235 0.429687 -0.754306;
294, 0.021308 0.475606 -0.751495;
295, 0.021380 0.416703 -0.741238;
296, 0.021453 0.443950 -0.880784;
297, 0.021526 0.429524 -0.929699;
298, 0.021598 0.477889 -0.780091;
299, 0.021671 0.534244 -0.693233;
300, 0.021744 0.439913 -0.833202;
301, 0.021817 0.344355 -0.858483;
302, 0.021889 0.447006 -0.860272;
303, 0.021962 0.454782 -0.683655;
304, 0.022035 0.429040 -0.919437;
305, 0.022107 0.428660 -0.860306;
306, 0.022180 0.456698 -0.888937;
307, 0.022253 0.489775 -0.847501;
308, 0.022326 0.485478 -0.792344;
309, 0.022398 0.373303 -0.906901;
310, 0.022471 0.456931 -0.829544;
311, 0.022544 0.538675 -0.911197;
312, 0.022617 0.450373 -0.897028;
313, 0.022689 0.410555 -0.877670;
314, 0.022762 0.509158 -0.812098;
315, 0.022835 0.466725 -0.802825;
316, 0.022907 0.371133 -0.740992;
317, 0.022980 0.468630 -0.819570;
318, 0.023053 0.484935 -0.900606;
319, 0.023126 0.526637 -0.783507;
320, 0.023198 0.412613 -0.848735;
321, 0.023271 0.465709 -0.917153;
322, 0.023344 0.438544 -0.862895;
323, 0.023416 0.517986 -0.802577;
324, 0.023489 0.467176 -0.791358;
325, 0.023562 0.490256 -0.693101;
326, 0.023635 0.461058 -0.776384;
327, 0.023707 0.450760 -0.929177;
328, 0.023780 0.519877 -0.816966;
329, 0.023853 0.441845 -0.766118;
330, 0.023926 0.419653 -0.846001;
331, 0.023998 0.420729 -0.759757;
332, 0.024071 0.440782 -0.868410;
333, 0.024144 0.487283 -0.818629;
334, 0.024216 0.449995 -0.926968;
335, 0.024289 0.501769 -0.770589;
336, 0.024362 0.442473 -0.897097;
337, 0.024435 0.363392 -0.841779;
338, 0.024507 0.401074 -0.854296;
339, 0.024580 0.456295 -0.845547;
340, 0.024653 0.496480 -0.916357;
341, 0.024725 0.469570 -0.696919;
342, 0.024798 0.439412 -0.761399;
343, 0.024871 0.447912 -0.900249;
344, 0.024944 0.451039 -0.735058;
345, 0.025016 0.409252 -0.979555;
346, 0.025089 0.386909 -0.767473;
347, 0.025162 0.507480 -0.858723;
348, 0.025235 0.538760 -0.869988;
349, 0.025307 0.494846 -0.776038;
350, 0.025380 0.511746 -0.952729;
351, 0.025453 0.461825 -0.976033;
352, 0.025525 0.476281 -0.862356;
353, 0.025598 0.467243 -0.887307;
354, 0.025671 0.479255 -0.828011;
355, 0.025744 0.536237 -0.872275;
356, 0.025816 0.487367 -0.790423;
357, 0.025889 0.473198 -0.897278;
358, 0.025962 0.456600 -0.792079;
359, 0.026034 0.489786 -1.008349;
360, 0.026107 0.467656 -0.852242;
361, 0.026180 0.542029 -0.878184;
362, 0.026253 0.491179 -0.822006;
363, 0.026325 0.374026 -0.978872;
364, 0.026398 0.461148 -0.868678;
365, 0.026471 0.406130 -1.016564;
366, 0.026544 0.555287 -0.801077;
367, 0.026616 0.471397 -0.790334;
368, 0.026689 0.571258 -0.872877;
369, 0.026762 0.471416 -0.903470;
370, 0.026834 0.429099 -0.818118;
371, 0.026907 0.477426 -0.674603;
372, 0.026980 0.503597 -0.797604;
373, 0.027053 0.554083 -0.908686;
374, 0.027125 0.464269 -0.818153;
375, 0.027198 0.462672 -0.872024;
376, 0.027271 0.503165 -0.844128;
377, 0.027343 0.453843 -0.900710;
378, 0.027416 0.439624 -0.941998;
379, 0.027489 0.457546 -0.772748;
380, 0.027562 0.486289 -0.842248;
381, 0.027634 0.512908 -0.844186;
382, 0.027707 0.475073 -0.812347;
383, 0.027780 0.462574 -0.761615;
384, 0.027853 0.450576 -0.910237;
385, 0.027925 0.516430 -0.886279;
386, 0.027998 0.473974 -0.778848;
387, 0.028071 0.400726 -0.793678;
388, 0.028143 0.477797 -0.803025;
389, 0.028216 0.443348 -0.810122;
390, 0.028289 0.481016 -0.791271;
391, 0.028362 0.482463 -0.912315;
392, 0.028434 0.480965 -0.859230;
393, 0.028507 0.512785 -0.799281;
394, 0.028580 0.451399 -0.846805;
395, 0.028652 0.457652 -0.836195;
396, 0.028725 0.550870 -0.838988;
397, 0.028798 0.514577 -0.948831;
398, 0.028871 0.490845 -0.716505;
399, 0.028943 0.503083 -0.744285;
400, 0.029016 0.476972 -0.871946;
401, 0.029089 0.431725 -0.761382;
402, 0.029162 0.505190 -0.911771;
403, 0.029234 0.458690 -0.858101;
404, 0.029307 0.445370 -0.970155;
405, 0.029380 0.422773 -0.766168;
406, 0.029452 0.492232 -0.834448;
407, 0.029525 0.524892 -0.860454;
408, 0.029598 0.462442 -0.927439;
409, 0.029671 0.489938 -1.030816;
410, 0.029743 0.454529 -0.999888;
411, 0.029816 0.448248 -0.963903;
412, 0.029889 0.456060 -0.870172;
413, 0.029961 0.413353 -0.638091;
414, 0.030034 0.441155 -0.934753;
415, 0.030107 0.469473 -0.863649;
416, 0.030180 0.517458 -0.866762;
417, 0.030252 0.451001 -0.901771;
418, 0.030325 0.376519 -0.812723;
419, 0.030398 0.463559 -0.906168;
420, 0.030471 0.443856 -0.887879;
421, 0.030543 0.467479 -0.831305;
422, 0.030616 0.464597 -0.826141;
423, 0.030689 0.519249 -0.891529;
424, 0.030761 0.496136 -0.789227;
425, 0.030834 0.436242 -0.837867;
426, 0.030907 0.534646 -0.831837;
427, 0.030980 0.509327 -0.925629;
428, 0.031052 0.509556 -0.879465;
429, 0.031125 0.464179 -0.825273;
430, 0.031198 0.486695 -0.787699;
431, 0.031270 0.392898 -0.936331;
432, 0.031343 0.443739 -0.896418;
433, 0.031416 0.500227 -0.993845;
434, 0.031489 0.490008 -0.915065;
435, 0.031561 0.486696 -0.781274;
436, 0.031634 0.469669 -0.801449;
437, 0.031707 0.447978 -0.813330;
438, 0.031780 0.487530 -0.953436;
439, 0.031852 0.516330 -0.874455;
440, 0.031925 0.518344 -0.805400;
441, 0.031998 0.481060 -0.863333;
442, 0.032070 0.469105 -0.925732;
443, 0.032143 0.474319 -0.919826;
444, 0.032216 0.484918 -0.875056;
445, 0.032289 0.516493 -0.988849;
446, 0.032361 0.462532 -0.874789;
447, 0.032434 0.481814 -0.972330;
448, 0.032507 0.475290 -0.715132;
449, 0.032579 0.473113 -0.827184;
450, 0.032652 0.464119 -0.824363;
451, 0.032725 0.531605 -0.855395;
452, 0.032798 0.436063 -0.803195;
453, 0.032870 0.485695 -0.763356;
454, 0.032943 0.453580 -0.870889;
455, 0.033016 0.450439 -0.821668;
456, 0.033089 0.469696 -0.745270;
457, 0.033161 0.481419 -0.888202;
458, 0.033234 0.503093 -0.869674;
459, 0.033307 0.493985 -0.797297;
460, 0.033379 0.341143 -0.877640;
461, 0.033452 0.492811 -0.941716;
462, 0.033525 0.449738 -0.986095;
463, 0.033598 0.489142 -0.937930;
464, 0.033670 0.508639 -0.888010;
465, 0.033743 0.527023 -0.903264;
466, 0.033816 0.564999 -0.792804;
467, 0.033888 0.506600 -0.832229;
468, 0.033961 0.505407 -0.783558;
469, 0.034034 0.392334 -0.776724;
470, 0.034107 0.525691 -0.789261;
471, 0.034179 0.457543 -1.014572;
472, 0.034252 0.510025 -0.833816;
473, 0.034325 0.475030 -0.848640;
474, 0.034397 0.476440 -0.906189;
475, 0.034470 0.461571 -0.757633;
476, 0.034543 1.235268 0.781747;
477, 0.034616 0.898366 -1.615528;
478, 0.034688 1.197813 -0.815311;
479, 0.034761 0.180483 -0.044191;
480, 0.034834 0.436846 -0.596189;
481, 0.034907 -0.185717 -0.740464;
482, 0.034979 0.095268 0.045030;
483, 0.035052 1.236708 0.446310;
484, 0.035125 0.115386 -0.160414;
485, 0.035197 -0.018013 0.379735;
486, 0.035270 0.836021 1.087871;
487, 0.035343 0.944764 -1.657613;
488, 0.035416 1.324230 -0.852091;
489, 0.035488 0.726832 -0.186341;
490, 0.035561 -0.211063 -0.995337;
491, 0.035634 0.806755 0.011541;
492, 0.035706 0.123612 -0.331971;
493, 0.035779 0.688283 0.636803;
494, 0.035852 0.634602 0.534862;
495, 0.035925 0.650108 -0.693842;
496, 0.035997 0.834025 0.253721;
497, 0.036070 0.342049 -0.196467;
498, 0.036143 0.383581 -0.632034;
499, 0.036216 0.944078 -0.297436;
500, 0.036288 1.062842 -1.468210;
501, 0.036361 1.378992 -1.275003;
502, 0.036434 0.705748 -1.097839;
503, 0.036506 0.679014 -0.569439;
504, 0.036579 0.310640 -0.216421;
505, 0.036652 0.574597 -0.672084;
506, 0.036725 -0.048719 0.013637;
507, 0.036797 0.625591 -1.363101;
508, 0.036870 1.212124 0.756576;
509, 0.036943 1.095417 -0.815046;
510, 0.037015 1.466232 0.268963;
511, 0.037088 0.408947 0.262291;
512, 0.037161 0.323145 0.260412;
513, 0.037234 0.700787 0.138513;
514, 0.037306 -0.584224 0.262314;
515, 0.037379 0.328794 -2.114513;
516, 0.037452 1.308475 1.472138;
517, 0.037525 0.771049 -1.350791;
518, 0.037597 0.553626 -0.963630;
519, 0.037670 0.464697 -0.120797;
520, 0.037743 -0.031351 -0.205390;
521, 0.037815 0.593274 -0.148442;
522, 0.037888 0.660064 0.124131;
523, 0.037961 -0.279342 0.277363;
524, 0.038034 0.145101 -0.647800;
525, 0.038106 1.032967 -0.201005;
526, 0.038179 0.464887 0.135795;
527, 0.038252 0.921730 -0.979641;
528, 0.038324 0.621782 -0.093637;
529, 0.038397 0.763261 -0.191858;
530, 0.038470 0.591946 -1.621774;
531, 0.038543 0.274678 -0.752296;
532, 0.038615 0.741560 -0.377013;
533, 0.038688 0.359987 -0.341234;
534, 0.038761 0.825245 0.190403;
535, 0.038834 0.574302 1.566944;
536, 0.038906 -0.012206 0.786304;
537, 0.038979 0.235929 0.185745;
538, 0.039052 0.500648 -0.063891;
539, 0.039124 0.668189 -1.140626;
540, 0.039197 0.958906 0.285563;
541, 0.039270 0.140464 -0.287265;
542, 0.039343 0.712645 -0.226081;
543, 0.039415 0.672763 -0.165740;
544, 0.039488 1.638829 2.343378;
545, 0.039561 0.393371 0.943160;
546, 0.039633 0.186741 0.532111;
547, 0.039706 0.857199 -0.292882;
548, 0.039779 0.648029 0.124809;
549, 0.039852 0.944086 0.985913;
550, 0.039924 1.515739 -0.040926;
551, 0.039997 0.309675 0.099546;
552, 0.040070 0.218455 -0.713344;
553, 0.040143 0.994347 -0.131567;
554, 0.040215 0.027444 -0.911228;
555, 0.040288 0.353602 0.248839;
556, 0.040361 0.458781 0.075843;
557, 0.040433 -0.107079 -0.766654;
558, 0.040506 -0.341246 -0.093116;
559, 0.040579 0.226537 -0.287038;
560, 0.040652 0.021982 -0.421483;
561, 0.040724 -0.113237 0.789684;
562, 0.040797 0.325601 -0.273278;
563, 0.040870 1.117395 -0.455972;
564, 0.040942 0.953702 1.102255;
565, 0.041015 0.941132 -0.368523;
566, 0.041088 0.479744 -0.669288;
567, 0.041161 0.471372 0.239662;
568, 0.041233 0.643261 -1.175235;
569, 0.041306 1.269126 0.349924;
570, 0.041379 0.157977 -1.519684;
571, 0.041452 0.754510 1.029773;
572, 0.041524 0.899214 0.938733;
573, 0.041597 1.468471 -0.540451;
574, 0.041670 0.671400 -1.194255;
575, 0.041742 1.009864 -0.074090;
576, 0.041815 0.784354 0.609792;
577, 0.041888 0.970377 -1.532332;
578, 0.041961 1.139833 0.168457;
579, 0.042033 0.503405 -0.045838;
580, 0.042106 0.834371 1.539159;
581, 0.042179 0.977805 0.192286;
582, 0.042251 0.738344 -0.581375;
583, 0.042324 -0.122559 0.987769;
584, 0.042397 1.329854 0.915273;
585, 0.042470 0.804909 -0.515823;
586, 0.042542 0.917989 -1.619695;
587, 0.042615 0.462652 0.333788;
588, 0.042688 0.789052 -0.105796;
589, 0.042761 0.287817 -0.662509;
590, 0.042833 0.302067 -0.179523;
591, 0.042906 1.423979 1.159818;
